Clinic:	Radiotherapie UMC Utrecht
Address:	Heidelberglaan 100, Utrecht
Telephone:	030-2507209
Email:	radiotherapy@azu.nl

Beam Description:

Radiation device	selftest
Energy	6 MV Photon
Wedge:	 0 °
Gantry	0 °(0°up, CW)
Collimator	0 °
SSD, SAD [cm]:	100	100
Applicator:	No Applicator
Field size [cm x cm]:	40 x 40
Field position inline (min, max) [cm]:	-20	20
Field position crossline (min, max) [cm]:	-20	20
Medium:	Water

CurveType: 	Angle

Curve Description:

Measurement Time:	2012-10-09 13:01:19
Modification Time:	2012-10-09 13:01:19
Operator:	
Measurement comment:	
Setup comment:	
Renormalise factor:	-
Curve offset [cm]:	-

Detector
Quantity:	Relative Dose
Detector Type:	IC 15	Ion Chamber (Cylindrical)	Offset to P eff [cm]: -0.18	Radius:68cm
Can be used for CA24 calibration:	No

Electrometer
Electrometer type:	CU500E
Measurement mode:	Continuous
Reference division:	-
Reference (avg, min, max):	1075	1061	1088
Measurements per point:	-
Sampling time [ms]:	0
HV type:	-
Normalisation value, field and reference:	1021	986
Dark current, field and reference:	-4	5
High voltage, field and reference [V]:	300	300
Gain, field and reference:	18	18
Range, field and reference:	HIGH	HIGH

Servo
Servo type:	Blue 48 48 41
Scan Speed [mm/s]:	15
Water surface correction [cm]:	9.9
Water offset correction [cm]:	0
Origin [X, Y, Z] [cm]:	0.45	0.09	19.81
Servo axis [I, C, D]:	-Y	X	-Z
Isocentre [I, C, D] [cm]:	0	0	0
Normalisation [I, C, D] [cm]:	0	0	5

Position A [I, C, D] [cm]:	0.09	-0.45	19.67
Position B [I, C, D] [cm]:	0.09	-0.45	19.67
Position C [I, C, D] [cm]:	0.09	-0.45	19.67
Position D [I, C, D] [cm]:	0.09	-0.45	19.67
Number Of Points:	900
Start Point [I,C,D] [cm]:	-23.91	-23.91	1.6
End Point [I,C,D] [cm]:	23.51	23.51	1.6
Points [cm]:	Inline	Crossline	Depth	Relative Dose
	-23.93	-23.93	1.6	2.3
	-23.88	-23.88	1.6	2.4
	-23.80	-23.80	1.6	2.5
	-23.73	-23.73	1.6	2.4
	-23.67	-23.67	1.6	2.5
	-23.62	-23.62	1.6	2.6
	-23.57	-23.57	1.6	2.6
	-23.52	-23.52	1.6	2.6
	-23.47	-23.47	1.6	2.6
	-23.41	-23.41	1.6	2.7
	-23.35	-23.35	1.6	2.8
	-23.31	-23.31	1.6	2.8
	-23.25	-23.25	1.6	2.8
	-23.20	-23.20	1.6	3
	-23.14	-23.14	1.6	3
	-23.10	-23.10	1.6	2.9
	-23.04	-23.04	1.6	3.1
	-22.99	-22.99	1.6	3.1
	-22.95	-22.95	1.6	3.1
	-22.88	-22.88	1.6	3.1
	-22.83	-22.83	1.6	3.2
	-22.78	-22.78	1.6	3.3
	-22.72	-22.72	1.6	3.3
	-22.67	-22.67	1.6	3.3
	-22.62	-22.62	1.6	3.3
	-22.57	-22.57	1.6	3.4
	-22.52	-22.52	1.6	3.5
	-22.46	-22.46	1.6	3.6
	-22.41	-22.41	1.6	3.6
	-22.35	-22.35	1.6	3.6
	-22.31	-22.31	1.6	3.7
	-22.25	-22.25	1.6	3.7
	-22.2	-22.2	1.6	3.8
	-22.15	-22.15	1.6	3.8
	-22.09	-22.09	1.6	3.9
	-22.04	-22.04	1.6	4
	-21.99	-21.99	1.6	4
	-21.93	-21.93	1.6	4
	-21.88	-21.88	1.6	4.1
	-21.83	-21.83	1.6	4.2
	-21.78	-21.78	1.6	4.2
	-21.72	-21.72	1.6	4.3
	-21.68	-21.68	1.6	4.3
	-21.62	-21.62	1.6	4.4
	-21.56	-21.56	1.6	4.5
	-21.52	-21.52	1.6	4.5
	-21.46	-21.46	1.6	4.6
	-21.41	-21.41	1.6	4.6
	-21.35	-21.35	1.6	4.7
	-21.29	-21.29	1.6	4.7
	-21.25	-21.25	1.6	4.7
	-21.20	-21.20	1.6	4.9
	-21.15	-21.15	1.6	4.8
	-21.09	-21.09	1.6	4.9
	-21.03	-21.03	1.6	5
	-20.99	-20.99	1.6	5.1
	-20.92	-20.92	1.6	5.1
	-20.88	-20.88	1.6	5.2
	-20.82	-20.82	1.6	5.3
	-20.79	-20.79	1.6	5.4
	-20.73	-20.73	1.6	5.4
	-20.67	-20.67	1.6	5.6
	-20.61	-20.61	1.6	5.6
	-20.56	-20.56	1.6	5.7
	-20.51	-20.51	1.6	5.7
	-20.46	-20.46	1.6	5.8
	-20.40	-20.40	1.6	5.9
	-20.36	-20.36	1.6	6
	-20.29	-20.29	1.6	6.1
	-20.24	-20.24	1.6	6.1
	-20.19	-20.19	1.6	6.2
	-20.14	-20.14	1.6	6.4
	-20.09	-20.09	1.6	6.5
	-20.03	-20.03	1.6	6.6
	-19.98	-19.98	1.6	6.6
	-19.93	-19.93	1.6	6.7
	-19.87	-19.87	1.6	6.9
	-19.83	-19.83	1.6	6.9
	-19.77	-19.77	1.6	7
	-19.72	-19.72	1.6	7.3
	-19.66	-19.66	1.6	7.3
	-19.61	-19.61	1.6	7.5
	-19.56	-19.56	1.6	7.7
	-19.51	-19.51	1.6	7.7
	-19.46	-19.46	1.6	8
	-19.40	-19.40	1.6	8.1
	-19.35	-19.35	1.6	8.2
	-19.30	-19.30	1.6	8.5
	-19.24	-19.24	1.6	8.9
	-19.19	-19.19	1.6	9
	-19.14	-19.14	1.6	9.4
	-19.09	-19.09	1.6	9.5
	-19.03	-19.03	1.6	10.1
	-18.98	-18.98	1.6	10.5
	-18.93	-18.93	1.6	11
	-18.87	-18.87	1.6	11.7
	-18.82	-18.82	1.6	12.7
	-18.77	-18.77	1.6	13.8
	-18.71	-18.71	1.6	15.6
	-18.66	-18.66	1.6	17.3
	-18.61	-18.61	1.6	20.1
	-18.56	-18.56	1.6	22.9
	-18.51	-18.51	1.6	27.3
	-18.45	-18.45	1.6	32.3
	-18.40	-18.40	1.6	36.7
	-18.34	-18.34	1.6	43
	-18.29	-18.29	1.6	47.5
	-18.24	-18.24	1.6	53.4
	-18.18	-18.18	1.6	58.9
	-18.14	-18.14	1.6	62.6
	-18.08	-18.08	1.6	67.4
	-18.03	-18.03	1.6	70.7
	-17.97	-17.97	1.6	74.3
	-17.92	-17.92	1.6	77.1
	-17.87	-17.87	1.6	79.2
	-17.81	-17.81	1.6	81
	-17.76	-17.76	1.6	82.5
	-17.71	-17.71	1.6	84.2
	-17.66	-17.66	1.6	85.5
	-17.61	-17.61	1.6	86.7
	-17.55	-17.55	1.6	88.5
	-17.51	-17.51	1.6	90.2
	-17.44	-17.44	1.6	91.9
	-17.40	-17.40	1.6	92.4
	-17.34	-17.34	1.6	94.5
	-17.29	-17.29	1.6	95.9
	-17.24	-17.24	1.6	96.8
	-17.19	-17.19	1.6	98.4
	-17.13	-17.13	1.6	99.6
	-17.08	-17.08	1.6	101.1
	-17.03	-17.03	1.6	102.3
	-16.98	-16.98	1.6	103.5
	-16.92	-16.92	1.6	104.8
	-16.87	-16.87	1.6	105.4
	-16.81	-16.81	1.6	107.1
	-16.76	-16.76	1.6	107.7
	-16.72	-16.72	1.6	108.1
	-16.65	-16.65	1.6	109.2
	-16.61	-16.61	1.6	109.8
	-16.55	-16.55	1.6	110.3
	-16.5	-16.5	1.6	110.8
	-16.45	-16.45	1.6	111.5
	-16.38	-16.38	1.6	112.1
	-16.35	-16.35	1.6	112.4
	-16.29	-16.29	1.6	112.7
	-16.23	-16.23	1.6	113.4
	-16.19	-16.19	1.6	113.4
	-16.13	-16.13	1.6	114.1
	-16.08	-16.08	1.6	114
	-16.03	-16.03	1.6	114.3
	-15.97	-15.97	1.6	114.5
	-15.92	-15.92	1.6	115.1
	-15.87	-15.87	1.6	115.6
	-15.82	-15.82	1.6	115.4
	-15.76	-15.76	1.6	115.2
	-15.70	-15.70	1.6	115.7
	-15.66	-15.66	1.6	115.6
	-15.60	-15.60	1.6	115.9
	-15.56	-15.56	1.6	115.8
	-15.49	-15.49	1.6	115.7
	-15.43	-15.43	1.6	115.7
	-15.40	-15.40	1.6	115.9
	-15.33	-15.33	1.6	116.3
	-15.29	-15.29	1.6	116
	-15.23	-15.23	1.6	115.5
	-15.18	-15.18	1.6	115.7
	-15.13	-15.13	1.6	115.7
	-15.08	-15.08	1.6	115.9
	-15.03	-15.03	1.6	115.4
	-14.97	-14.97	1.6	115.5
	-14.91	-14.91	1.6	115.9
	-14.86	-14.86	1.6	115.5
	-14.81	-14.81	1.6	115.5
	-14.76	-14.76	1.6	115.3
	-14.70	-14.70	1.6	115.4
	-14.65	-14.65	1.6	115.3
	-14.6	-14.6	1.6	115.7
	-14.55	-14.55	1.6	115.6
	-14.50	-14.50	1.6	115.6
	-14.44	-14.44	1.6	115.7
	-14.38	-14.38	1.6	115.6
	-14.34	-14.34	1.6	115.7
	-14.28	-14.28	1.6	115.8
	-14.23	-14.23	1.6	115.5
	-14.18	-14.18	1.6	115.5
	-14.13	-14.13	1.6	115.5
	-14.07	-14.07	1.6	115.3
	-14.02	-14.02	1.6	115.4
	-13.97	-13.97	1.6	115.8
	-13.91	-13.91	1.6	115.6
	-13.87	-13.87	1.6	115.5
	-13.81	-13.81	1.6	115.5
	-13.75	-13.75	1.6	115.2
	-13.70	-13.70	1.6	115.4
	-13.65	-13.65	1.6	115.5
	-13.60	-13.60	1.6	115.5
	-13.54	-13.54	1.6	115.5
	-13.48	-13.48	1.6	115.5
	-13.44	-13.44	1.6	115.3
	-13.39	-13.39	1.6	115.2
	-13.34	-13.34	1.6	115.5
	-13.28	-13.28	1.6	115.3
	-13.22	-13.22	1.6	115.2
	-13.18	-13.18	1.6	115.4
	-13.12	-13.12	1.6	115.5
	-13.08	-13.08	1.6	115.1
	-13.02	-13.02	1.6	115.2
	-12.96	-12.96	1.6	115.2
	-12.91	-12.91	1.6	115.3
	-12.86	-12.86	1.6	114.9
	-12.81	-12.81	1.6	114.9
	-12.75	-12.75	1.6	115.1
	-12.7	-12.7	1.6	115
	-12.65	-12.65	1.6	115
	-12.59	-12.59	1.6	115.1
	-12.55	-12.55	1.6	115.1
	-12.49	-12.49	1.6	114.7
	-12.43	-12.43	1.6	115.2
	-12.38	-12.38	1.6	115.1
	-12.33	-12.33	1.6	114.7
	-12.28	-12.28	1.6	115.1
	-12.22	-12.22	1.6	114.9
	-12.17	-12.17	1.6	115
	-12.12	-12.12	1.6	114.8
	-12.07	-12.07	1.6	114.7
	-12.01	-12.01	1.6	115.1
	-11.96	-11.96	1.6	115
	-11.91	-11.91	1.6	114.8
	-11.85	-11.85	1.6	115.1
	-11.80	-11.80	1.6	114.7
	-11.75	-11.75	1.6	114.8
	-11.70	-11.70	1.6	114.9
	-11.64	-11.64	1.6	115
	-11.59	-11.59	1.6	115
	-11.54	-11.54	1.6	115.1
	-11.49	-11.49	1.6	114.8
	-11.44	-11.44	1.6	115.1
	-11.38	-11.38	1.6	115
	-11.33	-11.33	1.6	114.8
	-11.27	-11.27	1.6	115.1
	-11.23	-11.23	1.6	114.9
	-11.17	-11.17	1.6	114.9
	-11.11	-11.11	1.6	114.8
	-11.07	-11.07	1.6	115
	-11.01	-11.01	1.6	115.1
	-10.96	-10.96	1.6	115.1
	-10.91	-10.91	1.6	115
	-10.85	-10.85	1.6	114.9
	-10.81	-10.81	1.6	115.4
	-10.75	-10.75	1.6	114.9
	-10.70	-10.70	1.6	115.1
	-10.64	-10.64	1.6	114.7
	-10.59	-10.59	1.6	114.9
	-10.54	-10.54	1.6	114.6
	-10.48	-10.48	1.6	114.9
	-10.43	-10.43	1.6	114.6
	-10.38	-10.38	1.6	114.8
	-10.32	-10.32	1.6	115
	-10.28	-10.28	1.6	114.8
	-10.22	-10.22	1.6	114.5
	-10.17	-10.17	1.6	114.8
	-10.12	-10.12	1.6	114.5
	-10.06	-10.06	1.6	114.6
	-10.01	-10.01	1.6	114.5
	-9.96	-9.96	1.6	114.5
	-9.91	-9.91	1.6	114.3
	-9.85	-9.85	1.6	114
	-9.79	-9.79	1.6	114.2
	-9.75	-9.75	1.6	114.1
	-9.69	-9.69	1.6	114.2
	-9.65	-9.65	1.6	114.2
	-9.58	-9.58	1.6	114.2
	-9.53	-9.53	1.6	114
	-9.48	-9.48	1.6	114.1
	-9.43	-9.43	1.6	114
	-9.37	-9.37	1.6	114
	-9.32	-9.32	1.6	114.1
	-9.27	-9.27	1.6	113.9
	-9.22	-9.22	1.6	113.8
	-9.17	-9.17	1.6	113.9
	-9.10	-9.10	1.6	113.9
	-9.06	-9.06	1.6	113.7
	-9.00	-9.00	1.6	113.6
	-8.96	-8.96	1.6	113.5
	-8.90	-8.90	1.6	113.5
	-8.84	-8.84	1.6	113.6
	-8.80	-8.80	1.6	113.3
	-8.74	-8.74	1.6	113.9
	-8.69	-8.69	1.6	113.6
	-8.64	-8.64	1.6	113.6
	-8.58	-8.58	1.6	113.3
	-8.53	-8.53	1.6	113.2
	-8.47	-8.47	1.6	113.5
	-8.43	-8.43	1.6	113.4
	-8.37	-8.37	1.6	113.5
	-8.32	-8.32	1.6	113.4
	-8.27	-8.27	1.6	113.2
	-8.21	-8.21	1.6	113
	-8.17	-8.17	1.6	113.4
	-8.11	-8.11	1.6	113.3
	-8.05	-8.05	1.6	112.9
	-8.01	-8.01	1.6	113.2
	-7.96	-7.96	1.6	113
	-7.90	-7.90	1.6	113.1
	-7.85	-7.85	1.6	113.1
	-7.79	-7.79	1.6	113.1
	-7.74	-7.74	1.6	113.1
	-7.68	-7.68	1.6	113.1
	-7.63	-7.63	1.6	113
	-7.58	-7.58	1.6	112.6
	-7.53	-7.53	1.6	113
	-7.48	-7.48	1.6	112.9
	-7.42	-7.42	1.6	112.9
	-7.36	-7.36	1.6	113
	-7.32	-7.32	1.6	113.2
	-7.27	-7.27	1.6	113.2
	-7.22	-7.22	1.6	112.9
	-7.16	-7.16	1.6	112.9
	-7.1	-7.1	1.6	113.2
	-7.06	-7.06	1.6	113
	-7.00	-7.00	1.6	113.2
	-6.95	-6.95	1.6	113.2
	-6.90	-6.90	1.6	113.1
	-6.84	-6.84	1.6	113.3
	-6.79	-6.79	1.6	113
	-6.74	-6.74	1.6	113
	-6.68	-6.68	1.6	113.1
	-6.63	-6.63	1.6	113.3
	-6.58	-6.58	1.6	113.2
	-6.53	-6.53	1.6	113.2
	-6.47	-6.47	1.6	113.3
	-6.41	-6.41	1.6	113.2
	-6.37	-6.37	1.6	113.4
	-6.31	-6.31	1.6	113.1
	-6.27	-6.27	1.6	113.4
	-6.21	-6.21	1.6	113.4
	-6.15	-6.15	1.6	113.3
	-6.11	-6.11	1.6	113.5
	-6.05	-6.05	1.6	113.1
	-6.00	-6.00	1.6	113.2
	-5.94	-5.94	1.6	113.5
	-5.89	-5.89	1.6	113.6
	-5.84	-5.84	1.6	113.1
	-5.79	-5.79	1.6	113.6
	-5.74	-5.74	1.6	113.7
	-5.69	-5.69	1.6	113.4
	-5.63	-5.63	1.6	113.4
	-5.58	-5.58	1.6	113.6
	-5.52	-5.52	1.6	113.2
	-5.48	-5.48	1.6	113.4
	-5.42	-5.42	1.6	113.4
	-5.36	-5.36	1.6	113.4
	-5.32	-5.32	1.6	113.6
	-5.26	-5.26	1.6	113.4
	-5.21	-5.21	1.6	113.4
	-5.15	-5.15	1.6	113.6
	-5.10	-5.10	1.6	113.6
	-5.05	-5.05	1.6	113.5
	-5.00	-5.00	1.6	113.2
	-4.94	-4.94	1.6	113.4
	-4.89	-4.89	1.6	113.6
	-4.83	-4.83	1.6	113.7
	-4.79	-4.79	1.6	113.7
	-4.73	-4.73	1.6	113.6
	-4.67	-4.67	1.6	113.4
	-4.63	-4.63	1.6	113.7
	-4.57	-4.57	1.6	113.7
	-4.53	-4.53	1.6	113.8
	-4.47	-4.47	1.6	113.8
	-4.41	-4.41	1.6	113.6
	-4.37	-4.37	1.6	113.8
	-4.31	-4.31	1.6	114.2
	-4.26	-4.26	1.6	114.1
	-4.21	-4.21	1.6	113.9
	-4.15	-4.15	1.6	113.9
	-4.10	-4.10	1.6	114
	-4.05	-4.05	1.6	114.3
	-4.00	-4.00	1.6	114.2
	-3.95	-3.95	1.6	114.3
	-3.88	-3.88	1.6	114.1
	-3.84	-3.84	1.6	113.9
	-3.78	-3.78	1.6	114.1
	-3.74	-3.74	1.6	114
	-3.68	-3.68	1.6	114.3
	-3.62	-3.62	1.6	114
	-3.58	-3.58	1.6	114.1
	-3.52	-3.52	1.6	114
	-3.46	-3.46	1.6	114
	-3.41	-3.41	1.6	114.1
	-3.36	-3.36	1.6	113.8
	-3.31	-3.31	1.6	113.9
	-3.25	-3.25	1.6	113.9
	-3.2	-3.2	1.6	113.8
	-3.15	-3.15	1.6	114.1
	-3.09	-3.09	1.6	113.9
	-3.05	-3.05	1.6	114
	-2.99	-2.99	1.6	114.1
	-2.93	-2.93	1.6	114.2
	-2.89	-2.89	1.6	113.8
	-2.84	-2.84	1.6	114.2
	-2.79	-2.79	1.6	114
	-2.72	-2.72	1.6	113.7
	-2.67	-2.67	1.6	113.9
	-2.62	-2.62	1.6	113.8
	-2.57	-2.57	1.6	113.9
	-2.52	-2.52	1.6	114.2
	-2.46	-2.46	1.6	114.1
	-2.41	-2.41	1.6	113.7
	-2.36	-2.36	1.6	114.1
	-2.30	-2.30	1.6	114
	-2.26	-2.26	1.6	113.9
	-2.20	-2.20	1.6	113.9
	-2.14	-2.14	1.6	114
	-2.1	-2.1	1.6	113.7
	-2.03	-2.03	1.6	114
	-1.99	-1.99	1.6	113.9
	-1.94	-1.94	1.6	113.7
	-1.88	-1.88	1.6	113.9
	-1.84	-1.84	1.6	113.9
	-1.78	-1.78	1.6	114
	-1.73	-1.73	1.6	113.9
	-1.67	-1.67	1.6	113.6
	-1.61	-1.61	1.6	113.9
	-1.57	-1.57	1.6	113.9
	-1.51	-1.51	1.6	113.9
	-1.47	-1.47	1.6	113.7
	-1.41	-1.41	1.6	113.8
	-1.35	-1.35	1.6	113.7
	-1.31	-1.31	1.6	113.5
	-1.25	-1.25	1.6	113.7
	-1.20	-1.20	1.6	113.8
	-1.14	-1.14	1.6	113.9
	-1.09	-1.09	1.6	114
	-1.04	-1.04	1.6	113.6
	-0.99	-0.99	1.6	113.7
	-0.95	-0.95	1.6	113.9
	-0.88	-0.88	1.6	114
	-0.83	-0.83	1.6	113.6
	-0.78	-0.78	1.6	113.7
	-0.73	-0.73	1.6	113.9
	-0.68	-0.68	1.6	113.8
	-0.62	-0.62	1.6	113.8
	-0.56	-0.56	1.6	113.6
	-0.52	-0.52	1.6	113.6
	-0.46	-0.46	1.6	113.6
	-0.40	-0.40	1.6	113.6
	-0.36	-0.36	1.6	113.5
	-0.30	-0.30	1.6	113.4
	-0.25	-0.25	1.6	113.3
	-0.19	-0.19	1.6	113.4
	-0.14	-0.14	1.6	113.3
	-0.09	-0.09	1.6	113.2
	-0.03	-0.03	1.6	113.2
	0.01	0.01	1.6	113.1
	0.07	0.07	1.6	112.9
	0.12	0.12	1.6	113
	0.17	0.17	1.6	113.5
	0.22	0.22	1.6	113.2
	0.27	0.27	1.6	113.2
	0.33	0.33	1.6	113.4
	0.38	0.38	1.6	113.6
	0.43	0.43	1.6	113.6
	0.49	0.49	1.6	113.6
	0.53	0.53	1.6	113.3
	0.60	0.60	1.6	113.4
	0.65	0.65	1.6	113.6
	0.69	0.69	1.6	113.6
	0.75	0.75	1.6	113.5
	0.79	0.79	1.6	113.5
	0.85	0.85	1.6	113.7
	0.91	0.91	1.6	113.9
	0.96	0.96	1.6	113.5
	1.01	1.01	1.6	113.5
	1.06	1.06	1.6	113.7
	1.12	1.12	1.6	113.6
	1.18	1.18	1.6	113.3
	1.22	1.22	1.6	113.4
	1.28	1.28	1.6	113.5
	1.33	1.33	1.6	113.4
	1.38	1.38	1.6	113.4
	1.44	1.44	1.6	113.3
	1.49	1.49	1.6	113.8
	1.54	1.54	1.6	113.8
	1.60	1.60	1.6	113.7
	1.64	1.64	1.6	113.3
	1.70	1.70	1.6	113.5
	1.74	1.74	1.6	113.6
	1.81	1.81	1.6	113.4
	1.86	1.86	1.6	113.6
	1.91	1.91	1.6	113.5
	1.97	1.97	1.6	114.1
	2.01	2.01	1.6	114.2
	2.07	2.07	1.6	113.9
	2.13	2.13	1.6	113.7
	2.17	2.17	1.6	113.5
	2.23	2.23	1.6	113.8
	2.28	2.28	1.6	113.4
	2.33	2.33	1.6	113.6
	2.39	2.39	1.6	113.7
	2.44	2.44	1.6	114
	2.49	2.49	1.6	113.9
	2.54	2.54	1.6	113.8
	2.60	2.60	1.6	113.7
	2.66	2.66	1.6	113.9
	2.70	2.70	1.6	113.7
	2.76	2.76	1.6	113.8
	2.81	2.81	1.6	113.9
	2.86	2.86	1.6	113.6
	2.91	2.91	1.6	113.7
	2.96	2.96	1.6	113.7
	3.02	3.02	1.6	113.7
	3.08	3.08	1.6	113.7
	3.12	3.12	1.6	113.4
	3.18	3.18	1.6	113.6
	3.22	3.22	1.6	114.1
	3.28	3.28	1.6	113.8
	3.34	3.34	1.6	113.9
	3.39	3.39	1.6	113.8
	3.45	3.45	1.6	113.6
	3.49	3.49	1.6	113.9
	3.55	3.55	1.6	114.1
	3.61	3.61	1.6	113.7
	3.65	3.65	1.6	114
	3.71	3.71	1.6	114.2
	3.75	3.75	1.6	113.4
	3.81	3.81	1.6	114
	3.87	3.87	1.6	113.7
	3.91	3.91	1.6	114
	3.97	3.97	1.6	113.8
	4.02	4.02	1.6	113.7
	4.08	4.08	1.6	113.2
	4.14	4.14	1.6	113.8
	4.18	4.18	1.6	113.5
	4.24	4.24	1.6	114
	4.28	4.28	1.6	113.9
	4.34	4.34	1.6	113.6
	4.40	4.40	1.6	113.5
	4.44	4.44	1.6	113.7
	4.50	4.50	1.6	113.6
	4.54	4.54	1.6	113.3
	4.60	4.60	1.6	113.5
	4.66	4.66	1.6	113.6
	4.71	4.71	1.6	113.3
	4.76	4.76	1.6	113.7
	4.82	4.82	1.6	113.8
	4.86	4.86	1.6	113.5
	4.93	4.93	1.6	113.5
	4.97	4.97	1.6	113.1
	5.03	5.03	1.6	113.4
	5.08	5.08	1.6	113.1
	5.13	5.13	1.6	113.2
	5.19	5.19	1.6	113.7
	5.23	5.23	1.6	113.7
	5.29	5.29	1.6	113.3
	5.34	5.34	1.6	113.3
	5.39	5.39	1.6	113
	5.45	5.45	1.6	113.3
	5.49	5.49	1.6	113.3
	5.55	5.55	1.6	112.9
	5.61	5.61	1.6	113.2
	5.65	5.65	1.6	113.4
	5.71	5.71	1.6	113
	5.76	5.76	1.6	113.3
	5.82	5.82	1.6	113.2
	5.87	5.87	1.6	113.3
	5.92	5.92	1.6	113.2
	5.98	5.98	1.6	113.1
	6.02	6.02	1.6	113.2
	6.08	6.08	1.6	113.6
	6.14	6.14	1.6	113.4
	6.18	6.18	1.6	113.1
	6.23	6.23	1.6	113
	6.30	6.30	1.6	112.9
	6.34	6.34	1.6	113
	6.40	6.40	1.6	113.2
	6.44	6.44	1.6	113.1
	6.50	6.50	1.6	112.9
	6.56	6.56	1.6	113.2
	6.60	6.60	1.6	112.9
	6.67	6.67	1.6	112.9
	6.71	6.71	1.6	113.3
	6.77	6.77	1.6	113
	6.82	6.82	1.6	113
	6.87	6.87	1.6	113
	6.93	6.93	1.6	112.9
	6.97	6.97	1.6	113
	7.03	7.03	1.6	113
	7.08	7.08	1.6	112.9
	7.14	7.14	1.6	112.7
	7.19	7.19	1.6	113
	7.24	7.24	1.6	112.9
	7.30	7.30	1.6	112.8
	7.35	7.35	1.6	113.2
	7.40	7.40	1.6	113.3
	7.45	7.45	1.6	113
	7.50	7.50	1.6	112.8
	7.56	7.56	1.6	112.9
	7.61	7.61	1.6	113
	7.66	7.66	1.6	112.9
	7.72	7.72	1.6	113.1
	7.76	7.76	1.6	112.9
	7.82	7.82	1.6	113.4
	7.88	7.88	1.6	113.4
	7.93	7.93	1.6	112.9
	7.98	7.98	1.6	113.1
	8.02	8.02	1.6	113.2
	8.08	8.08	1.6	113.1
	8.15	8.15	1.6	113.1
	8.19	8.19	1.6	113
	8.24	8.24	1.6	113.2
	8.30	8.30	1.6	113.2
	8.35	8.35	1.6	113.4
	8.40	8.40	1.6	113.4
	8.45	8.45	1.6	113.3
	8.51	8.51	1.6	113.7
	8.57	8.57	1.6	113.3
	8.61	8.61	1.6	113.3
	8.67	8.67	1.6	113.5
	8.71	8.71	1.6	113.5
	8.77	8.77	1.6	113.5
	8.83	8.83	1.6	113.5
	8.87	8.87	1.6	113.8
	8.93	8.93	1.6	113.4
	8.98	8.98	1.6	113.4
	9.03	9.03	1.6	113.7
	9.09	9.09	1.6	113.9
	9.14	9.14	1.6	113.9
	9.20	9.20	1.6	113.9
	9.24	9.24	1.6	114.1
	9.30	9.30	1.6	114.3
	9.36	9.36	1.6	113.9
	9.4	9.4	1.6	114.3
	9.46	9.46	1.6	114.2
	9.51	9.51	1.6	114
	9.56	9.56	1.6	114.1
	9.62	9.62	1.6	114.6
	9.67	9.67	1.6	114.1
	9.72	9.72	1.6	114.1
	9.79	9.79	1.6	114.3
	9.83	9.83	1.6	114.7
	9.88	9.88	1.6	114.3
	9.93	9.93	1.6	114.4
	9.98	9.98	1.6	115.1
	10.03	10.03	1.6	114.7
	10.09	10.09	1.6	114.8
	10.15	10.15	1.6	114.8
	10.19	10.19	1.6	114.8
	10.25	10.25	1.6	114.6
	10.31	10.31	1.6	114.8
	10.36	10.36	1.6	115
	10.41	10.41	1.6	115
	10.45	10.45	1.6	114.8
	10.51	10.51	1.6	115.3
	10.57	10.57	1.6	115.6
	10.62	10.62	1.6	115.4
	10.68	10.68	1.6	114.9
	10.72	10.72	1.6	115.3
	10.78	10.78	1.6	115.3
	10.83	10.83	1.6	115.5
	10.88	10.88	1.6	115.4
	10.94	10.94	1.6	115.2
	10.99	10.99	1.6	115.3
	11.04	11.04	1.6	115.6
	11.08	11.08	1.6	115.4
	11.15	11.15	1.6	115.2
	11.2	11.2	1.6	115.3
	11.25	11.25	1.6	115.3
	11.31	11.31	1.6	115.1
	11.35	11.35	1.6	115.1
	11.40	11.40	1.6	115.3
	11.47	11.47	1.6	115.3
	11.51	11.51	1.6	115.2
	11.57	11.57	1.6	115.2
	11.62	11.62	1.6	115.2
	11.67	11.67	1.6	115
	11.73	11.73	1.6	115.4
	11.78	11.78	1.6	115.5
	11.83	11.83	1.6	115.3
	11.88	11.88	1.6	115
	11.93	11.93	1.6	115.7
	11.99	11.99	1.6	115.3
	12.04	12.04	1.6	114.9
	12.10	12.10	1.6	115.3
	12.14	12.14	1.6	115.6
	12.20	12.20	1.6	115.2
	12.25	12.25	1.6	115.2
	12.31	12.31	1.6	115.1
	12.36	12.36	1.6	114.9
	12.41	12.41	1.6	115.2
	12.46	12.46	1.6	115.7
	12.52	12.52	1.6	115.1
	12.57	12.57	1.6	115.2
	12.62	12.62	1.6	115.2
	12.67	12.67	1.6	115.4
	12.73	12.73	1.6	115.4
	12.79	12.79	1.6	115.6
	12.83	12.83	1.6	115.6
	12.89	12.89	1.6	115.6
	12.94	12.94	1.6	115.4
	12.99	12.99	1.6	115.8
	13.05	13.05	1.6	115.7
	13.09	13.09	1.6	115.8
	13.15	13.15	1.6	115.5
	13.20	13.20	1.6	115.7
	13.25	13.25	1.6	115.9
	13.31	13.31	1.6	115.6
	13.36	13.36	1.6	115.5
	13.42	13.42	1.6	115.7
	13.46	13.46	1.6	115.9
	13.52	13.52	1.6	115.7
	13.58	13.58	1.6	115.6
	13.62	13.62	1.6	115.8
	13.68	13.68	1.6	115.9
	13.73	13.73	1.6	116.2
	13.79	13.79	1.6	116
	13.84	13.84	1.6	115.8
	13.88	13.88	1.6	115.7
	13.94	13.94	1.6	115.8
	13.99	13.99	1.6	115.5
	14.04	14.04	1.6	116.2
	14.11	14.11	1.6	115.4
	14.15	14.15	1.6	116.3
	14.21	14.21	1.6	115.6
	14.26	14.26	1.6	115.5
	14.31	14.31	1.6	115.4
	14.37	14.37	1.6	115.5
	14.41	14.41	1.6	115.4
	14.47	14.47	1.6	115
	14.51	14.51	1.6	115.1
	14.58	14.58	1.6	115.6
	14.63	14.63	1.6	115.4
	14.69	14.69	1.6	115.8
	14.73	14.73	1.6	115.4
	14.78	14.78	1.6	115.2
	14.84	14.84	1.6	115.2
	14.90	14.90	1.6	115.3
	14.94	14.94	1.6	115.2
	15	15	1.6	115.2
	15.05	15.05	1.6	115.6
	15.10	15.10	1.6	115.4
	15.16	15.16	1.6	115.1
	15.20	15.20	1.6	115.5
	15.26	15.26	1.6	115.6
	15.31	15.31	1.6	115.6
	15.37	15.37	1.6	116
	15.42	15.42	1.6	115.8
	15.47	15.47	1.6	115.8
	15.53	15.53	1.6	116.1
	15.57	15.57	1.6	115.5
	15.63	15.63	1.6	115.8
	15.69	15.69	1.6	116
	15.73	15.73	1.6	115.3
	15.79	15.79	1.6	115.4
	15.84	15.84	1.6	115
	15.89	15.89	1.6	114.9
	15.95	15.95	1.6	114.9
	16.00	16.00	1.6	114.4
	16.06	16.06	1.6	114.2
	16.10	16.10	1.6	113.7
	16.16	16.16	1.6	113.8
	16.21	16.21	1.6	112.9
	16.26	16.26	1.6	112.8
	16.31	16.31	1.6	112.1
	16.36	16.36	1.6	112.2
	16.42	16.42	1.6	111.4
	16.48	16.48	1.6	110.8
	16.52	16.52	1.6	110.2
	16.59	16.59	1.6	109.3
	16.63	16.63	1.6	108.8
	16.69	16.69	1.6	108.2
	16.74	16.74	1.6	107.2
	16.79	16.79	1.6	106.3
	16.85	16.85	1.6	105.2
	16.89	16.89	1.6	103.9
	16.96	16.96	1.6	102.7
	17.01	17.01	1.6	101.3
	17.05	17.05	1.6	100.2
	17.11	17.11	1.6	99.1
	17.16	17.16	1.6	98.2
	17.22	17.22	1.6	96.3
	17.27	17.27	1.6	95.2
	17.32	17.32	1.6	93.6
	17.38	17.38	1.6	91.7
	17.42	17.42	1.6	91
	17.47	17.47	1.6	89.4
	17.54	17.54	1.6	87.6
	17.58	17.58	1.6	86.2
	17.64	17.64	1.6	84.6
	17.69	17.69	1.6	83.7
	17.74	17.74	1.6	82
	17.79	17.79	1.6	80.4
	17.85	17.85	1.6	78.5
	17.90	17.90	1.6	76.1
	17.95	17.95	1.6	73.6
	18.01	18.01	1.6	70.5
	18.05	18.05	1.6	67.5
	18.11	18.11	1.6	62.8
	18.17	18.17	1.6	57.6
	18.22	18.22	1.6	53.3
	18.27	18.27	1.6	47.9
	18.32	18.32	1.6	43.2
	18.38	18.38	1.6	37.9
	18.43	18.43	1.6	32.7
	18.48	18.48	1.6	28.6
